Sample Run: 11486 Vanadium Run: UNKNOWN Wavelength: 1.066 Angstrom
Monitor: 1
# NIST LaB6 660b
# 1 Histograms
# File generated by Mantid:
# Instrument: POWGEN
# From workspace named : PG3_11486
# Primary flight path 60m 
# Sample Temperature: 300 Freq: 60 Hz Guide: -55.463 millimetre
# Normalised to pCharge
# Total flight path 63.776m, tth 54.1935deg, DIFC 14686.2
# Data for spectrum :0
BANK 1 731 731 SLOG       5684      50652  0.0030000 0 FXYE
        5692.503966637           0.000000000           0.000000000            
        5709.581478537           0.000000000           0.000000000            
        5726.710222972           0.000000000           0.000000000            
        5743.890353641           0.000000000           0.000000000            
        5761.122024702           0.000000000           0.000000000            
        5778.405390776           0.000000000           0.000000000            
        5795.740606949           0.000000000           0.000000000            
        5813.127828769           0.000000000           0.000000000            
        5830.567212256           0.000000000           0.000000000            
        5848.058913893           0.000000000           0.000000000            
        5865.603090634           0.001439607           0.001017956            
        5883.199899906           0.002879214           0.001439607            
        5900.849499606           0.000719803           0.000719803            
        5918.552048105           0.002159410           0.001246736            
        5936.307704249           0.005038624           0.001904421            
        5954.116627362           0.002879214           0.001439607            
        5971.978977244           0.002159410           0.001246736            
        5989.894914176           0.003599017           0.001609529            
        6007.864598918           0.003599017           0.001609529            
        6025.888192715           0.004318821           0.001763151            
        6043.965857293           0.007198034           0.002276218            
        6062.097754865           0.005758428           0.002035912            
        6080.284048129           0.005038624           0.001904421            
        6098.524900274           0.005038624           0.001904421            
        6116.820474975           0.005038624           0.001904421            
        6135.170936400           0.002879214           0.001439607            
        6153.576449209           0.005758428           0.002035912            
        6172.037178556           0.007198034           0.002276218            
        6190.553290092           0.009357445           0.002595288            
        6209.124949962           0.016555479           0.003452056            
        6227.752324812           0.018714890           0.003670292            
        6246.435581787           0.030951548           0.004720067            
        6265.174888532           0.042468403           0.005528915            
        6283.970413198           0.049666438           0.005979136            
        6302.822324437           0.143960689           0.010179558            
        6321.730791411           0.139641868           0.010025702            
        6340.695983785           0.262008454           0.013732974            
        6359.718071736           0.118767568           0.009246042            
        6378.797225951           0.125245799           0.009494859            
        6397.933617629           0.128125013           0.009603375            
        6417.127418482           0.136762654           0.009921805            
        6436.378800738           0.359181919           0.016079190            
        6455.687937140           0.202264768           0.012066104            
        6475.055000951           0.387254254           0.016695716            
        6494.480165954           0.227457888           0.012795505            
        6513.963606452           0.249051992           0.013389118            
        6533.505497271           0.228897495           0.012835934            
        6553.106013763           0.228177692           0.012815736            
        6572.765331804           0.305196661           0.014821660            
        6592.483627800           0.480828701           0.018603820            
        6612.261078683           0.283602557           0.014287690            
        6632.097861919           0.369259167           0.016303190            
        6651.994155505           0.328230371           0.015370795            
        6671.950137971           0.331829388           0.015454835            
        6691.965988385           0.341186833           0.015671230            
        6712.041886351           0.399490912           0.016957444            
        6732.178012010           0.375737398           0.016445579            
        6752.374546046           0.466432633           0.018323204            
        6772.631669684           0.448437546           0.017966270            
        6792.949564693           0.667977599           0.021927438            
        6813.328413387           0.385814647           0.016664654            
        6833.768398627           0.444118726           0.017879546            
        6854.269703823           0.403089929           0.017033658            
        6874.832512934           0.418205802           0.017350100            
        6895.457010473           0.414606785           0.017275282            
        6916.143381505           0.424684033           0.017483964            
        6936.891811649           0.439799905           0.017792399            
        6957.702487084           0.849368068           0.024726059            
        6978.575594545           0.482268308           0.018631650            
        6999.511321329           0.464993026           0.018294905            
        7020.509855293           0.448437547           0.017966270            
        7041.571384859           0.662938975           0.021844581            
        7062.696099013           0.780986741           0.023709848            
        7083.884187310           0.595277451           0.020699824            
        7105.135839872           1.599403266           0.033930162            
        7126.451247392           0.467152437           0.018337336            
        7147.830601134           0.442679119           0.017850544            
        7169.274092938           0.443398923           0.017865051            
        7190.781915216           0.831372983           0.024462729            
        7212.354260962           0.634146837           0.021364949            
        7233.991323745           0.472910864           0.018450009            
        7255.693297716           0.466432633           0.018323204            
        7277.460377609           0.426123640           0.017513573            
        7299.292758742           0.550649636           0.019908779            
        7321.190637018           0.456355384           0.018124187            
        7343.154208929           1.175439032           0.029087540            
        7365.183671556           1.127932004           0.028493671            
        7387.279222571           0.458514795           0.018167017            
        7409.441060239           0.660059760           0.021797093            
        7431.669383419           0.441959315           0.017836026            
        7453.964391570           0.705407378           0.022533411            
        7476.326284744           0.602475484           0.020824598            
        7498.755263598           0.493785164           0.018852804            
        7521.251529389           1.130811218           0.028530015            
        7543.815283977           0.496664378           0.018907689            
        7566.446729829           1.322998740           0.030859342            
        7589.146070019           1.058830873           0.027607065            
        7611.913508229           0.429722657           0.017587377            
        7634.749248754           0.489466343           0.018770177            
        7657.653496500           0.477229684           0.018534064            
        7680.626456989           0.461394008           0.018223967            
        7703.668336360           0.443398922           0.017865051            
        7726.779341369           0.433321674           0.017660872            
        7749.959679394           0.943662321           0.026062451            
        7773.209558432           0.583760595           0.020498606            
        7796.529187107           0.446997940           0.017937409            
        7819.918774668           0.662938974           0.021844581            
        7843.378530992           0.447717743           0.017951845            
        7866.908666585           0.405969144           0.017094384            
        7890.509392585           0.441959315           0.017836026            
        7914.180920763           0.461394008           0.018223967            
        7937.923463525           0.674455830           0.022033511            
        7961.737233916           0.900474113           0.025459071            
        7985.622445617           0.443398922           0.017865051            
        8009.579312954           1.435288079           0.032142265            
        8033.608050893           1.173999424           0.029069723            
        8057.708875046           0.482268308           0.018631650            
        8081.882001671           0.755793620           0.023324297            
        8106.127647676           0.553528850           0.019960760            
        8130.446030619           0.475070274           0.018492085            
        8154.837368711           0.482268308           0.018631650            
        8179.301880817           0.460674205           0.018209746            
        8203.839786459           0.444118725           0.017879546            
        8228.451305819           0.446997939           0.017937409            
        8253.136659736           0.474350471           0.018478070            
        8277.896069715           0.473630667           0.018464045            
        8302.729757925           1.816783909           0.036162511            
        8327.637947198           1.238061933           0.029852323            
        8352.620861040           0.441239512           0.017821495            
        8377.678723623           0.499543591           0.018962415            
        8402.811759794           0.473630667           0.018464045            
        8428.020195073           0.456355384           0.018124187            
        8453.304255659           0.631987426           0.021328542            
        8478.664168426           1.240941146           0.029887015            
        8504.100160931           0.462833615           0.018252375            
        8529.612461414           0.575842757           0.020359115            
        8555.201298798           2.150052905           0.039339743            
        8580.866902694           0.510340643           0.019166244            
        8606.609503402           0.485867326           0.018701041            
        8632.429331913           1.443925720           0.032238837            
        8658.326619908           0.678054846           0.022092220            
        8684.301599768           0.458514795           0.018167017            
        8710.354504567           0.549210029           0.019882737            
        8736.485568081           0.600316074           0.020787245            
        8762.695024785           0.398051305           0.016926863            
        8788.983109860           0.420365212           0.017394836            
        8815.350059189           0.597436860           0.020737335            
        8841.796109367           0.432601871           0.017646198            
        8868.321497695           0.416766195           0.017320211            
        8894.926462188           0.454195974           0.018081256            
        8921.611241575           0.426123639           0.017513573            
        8948.376075299           0.398771108           0.016942160            
        8975.221203525           0.439799905           0.017792399            
        9002.146867136           1.346752251           0.031135138            
        9029.153307737           0.557127867           0.020025547            
        9056.240767660           0.442679119           0.017850544            
        9083.409489963           0.747155979           0.023190632            
        9110.659718433           3.193048105           0.047941286            
        9137.991697589           0.499543591           0.018962415            
        9165.405672681           0.470031650           0.018393759            
        9192.901889699           0.500983198           0.018989718            
        9220.480595368           0.503862412           0.019044208            
        9248.142037155           0.409568160           0.017169990            
        9275.886463266           0.410287964           0.017185071            
        9303.714122656           0.403089929           0.017033658            
        9331.625265024           0.411727571           0.017215194            
        9359.620140819           0.410287963           0.017185071            
        9387.699001241           0.420365212           0.017394836            
        9415.862098245           0.511060446           0.019179756            
        9444.109684540           0.449157350           0.017980684            
        9472.442013593           0.399490912           0.016957444            
        9500.859339634           0.416046391           0.017305248            
        9529.361917653           1.482075301           0.032661948            
        9557.950003406           0.895435489           0.025387743            
        9586.623853416           0.396611698           0.016896226            
        9615.383724976           0.411727570           0.017215194            
        9644.229876151           0.631267622           0.021316392            
        9673.162565780           0.599596270           0.020774779            
        9702.182053477           0.435481084           0.017704823            
        9731.288599638           0.384375039           0.016633534            
        9760.482465437           0.383655236           0.016617952            
        9789.763912833           0.405969143           0.017094384            
        9819.133204571           0.413886981           0.017260280            
        9848.590604185           0.397331501           0.016911551            
        9878.136375998           0.402370126           0.017018442            
        9907.770785126           0.584480398           0.020511240            
        9937.494097481           0.392292877           0.016803980            
        9967.306579773           0.403089929           0.017033658            
        9997.208499513           0.389413663           0.016742200            
       10027.200125011           0.459954401           0.018195514            
       10057.281725386           0.400930518           0.016987971            
       10087.453570562           0.390133467           0.016757667            
       10117.715931274           0.420365212           0.017394836            
       10148.069079068           0.424684033           0.017483964            
       10178.513286305           1.251738196           0.030016752            
       10209.048826164           0.467152436           0.018337336            
       10239.675972643           0.394452288           0.016850166            
       10270.395000561           0.419645408           0.017379936            
       10301.206185562           0.531214943           0.019554292            
       10332.109804119           1.351790877           0.031193327            
       10363.106133531           0.436200887           0.017719449            
       10394.195451932           0.425403836           0.017498775            
       10425.378038288           0.425403836           0.017498775            
       10456.654172402           1.667064791           0.034640423            
       10488.024134920           3.009498227           0.046542959            
       10519.488207324           0.447717743           0.017951845            
       10551.046671946           0.434041477           0.017675535            
       10582.699811962           0.457794991           0.018152752            
       10614.447911398           2.294013593           0.040635437            
       10646.291255132           3.662359955           0.051343735            
       10678.230128898           0.474350470           0.018478070            
       10710.264819284           0.421085015           0.017409722            
       10742.395613742           0.432601870           0.017646198            
       10774.622800584           0.601035877           0.020799703            
       10806.946668985           1.411534563           0.031875184            
       10839.367508992           0.405249339           0.017079223            
       10871.885611519           0.395172091           0.016865533            
       10904.501268354           0.368539363           0.016287292            
       10937.214772159           0.385814646           0.016664654            
       10970.026416475           0.374297791           0.016414043            
       11002.936495725           0.383655236           0.016617952            
       11035.945305212           0.414606784           0.017275282            
       11069.053141128           0.372858184           0.016382448            
       11102.260300551           0.410287964           0.017185071            
       11135.567081453           1.767117468           0.035664789            
       11168.973782697           1.672103413           0.034692733            
       11202.480704045           0.404529536           0.017064048            
       11236.088146157           0.378616611           0.016508468            
       11269.796410596           0.377177005           0.016477053            
       11303.605799827           0.367819560           0.016271379            
       11337.516617227           1.567731912           0.033592540            
       11371.529167079           0.536973370           0.019659991            
       11405.643754580           0.346225457           0.015786521            
       11439.860685844           0.339027422           0.015621558            
       11474.180267901           0.365660150           0.016223545            
       11508.602808705           0.350544277           0.015884677            
       11543.128617131           0.371418577           0.016350791            
       11577.758002982           0.315273909           0.015064370            
       11612.491276991           0.355582902           0.015998431            
       11647.328750822           0.364940346           0.016207569            
       11682.270737075           0.357742312           0.016046935            
       11717.317549286           0.446278135           0.017922961            
       11752.469501934           4.238922521           0.055237585            
       11787.726910440           0.666537991           0.021903797            
       11823.090091171           0.411727570           0.017215194            
       11858.559361444           0.368539363           0.016287292            
       11894.135039529           0.402370125           0.017018442            
       11929.817444647           0.336148209           0.015555083            
       11965.606896981           2.329283964           0.040946630            
       12001.503717672           1.230863897           0.029765416            
       12037.508228825           0.389413663           0.016742200            
       12073.620753512           0.395891894           0.016880887            
       12109.841615772           0.359181919           0.016079190            
       12146.171140620           0.362780936           0.016159547            
       12182.609654041           0.435481084           0.017704823            
       12219.157483004           1.954266363           0.037505834            
       12255.814955453           0.400210715           0.016972714            
       12292.582400319           0.360621526           0.016111381            
       12329.460147520           0.380056219           0.016539823            
       12366.448527962           0.344066046           0.015737214            
       12403.547873546           0.351983884           0.015917261            
       12440.758517167           0.418205801           0.017350100            
       12478.080792718           0.703247966           0.022498895            
       12515.515035097           0.344785850           0.015753667            
       12553.061580202           0.339027422           0.015621558            
       12590.720764942           0.375737398           0.016445579            
       12628.492927237           0.351983884           0.015917261            
       12666.378406019           0.354863098           0.015982230            
       12704.377541237           0.362061132           0.016143507            
       12742.490673861           0.369978970           0.016319072            
       12780.718145882           0.375737398           0.016445579            
       12819.060300320           0.354143294           0.015966012            
       12857.517481221           0.347665064           0.015819308            
       12896.090033665           0.362780936           0.016159547            
       12934.778303766           0.386534450           0.016680192            
       12973.582638677           0.354863098           0.015982230            
       13012.503386593           1.954986166           0.037512740            
       13051.540896753           0.695330128           0.022371879            
       13090.695519443           0.395891894           0.016880887            
       13129.967606001           0.389413663           0.016742200            
       13169.357508819           0.386534450           0.016680192            
       13208.865581346           0.376457201           0.016461324            
       13248.492178090           0.374297791           0.016414043            
       13288.237654624           0.485867325           0.018701041            
       13328.102367588           4.192855098           0.054936612            
       13368.086674691           0.597436859           0.020737335            
       13408.190934715           0.400210715           0.016972714            
       13448.415507519           0.360621525           0.016111381            
       13488.760754042           0.353423491           0.015949778            
       13529.227036304           0.352703688           0.015933528            
       13569.814717413           0.364940346           0.016207569            
       13610.524161565           0.382215629           0.016586745            
       13651.355734049           1.540379380           0.033298203            
       13692.309801252           0.495224770           0.018880267            
       13733.386730655           0.393012680           0.016819389            
       13774.586890847           0.361341329           0.016127452            
       13815.910651520           0.398051305           0.016926863            
       13857.358383474           0.362061132           0.016143507            
       13898.930458625           0.366379953           0.016239505            
       13940.627250001           0.368539364           0.016287292            
       13982.449131751           0.458514794           0.018167017            
       14024.396479146           0.938623694           0.025992778            
       14066.469668583           0.423964229           0.017469141            
       14108.669077589           0.384375039           0.016633534            
       14150.995084822           0.387974056           0.016711225            
       14193.448070076           0.349104671           0.015852026            
       14236.028414287           0.395172091           0.016865533            
       14278.736499530           0.410287963           0.017185071            
       14321.572709028           0.418205801           0.017350100            
       14364.537427155           1.565572500           0.033569397            
       14407.631039437           6.736640492           0.069635169            
       14450.853932555           0.752914404           0.023279827            
       14494.206494353           0.497384180           0.018921385            
       14537.689113836           0.433321673           0.017660872            
       14581.302181177           0.429002853           0.017572641            
       14625.046087721           0.385814646           0.016664654            
       14668.921225984           0.400210715           0.016972714            
       14712.927989662           0.395172091           0.016865533            
       14757.066773631           0.449157349           0.017980684            
       14801.337973952           2.913764364           0.045796697            
       14845.741987874           1.397858296           0.031720390            
       14890.279213837           0.487306932           0.018728726            
       14934.950051479           0.441239511           0.017821495            
       14979.754901633           0.418925604           0.017365024            
       15024.694166338           0.464273221           0.018280740            
       15069.768248837           0.430442460           0.017602101            
       15114.977553584           0.405249339           0.017079223            
       15160.322486244           0.438360297           0.017763255            
       15205.803453703           0.450596956           0.018009476            
       15251.420864064           2.696383722           0.044055262            
       15297.175126656           2.108304302           0.038955931            
       15343.066652036           0.593837842           0.020674779            
       15389.095851992           0.490186146           0.018783973            
       15435.263139548           0.453476170           0.018066922            
       15481.568928967           0.458514794           0.018167017            
       15528.013635754           0.448437546           0.017966270            
       15574.597676661           0.430442460           0.017602101            
       15621.321469691           0.464993025           0.018294905            
       15668.185434100           0.462113811           0.018238177            
       15715.189990403           0.480828701           0.018603820            
       15762.335560374           0.459234598           0.018181271            
       15809.622567055           0.470751452           0.018407838            
       15857.051434756           0.436200887           0.017719449            
       15904.622589060           0.426123639           0.017513573            
       15952.336456828           0.436920691           0.017734063            
       16000.193466198           0.454195973           0.018081256            
       16048.194046597           0.477949487           0.018548037            
       16096.338628736           0.462833615           0.018252375            
       16144.627644623           0.462113811           0.018238177            
       16193.061527556           0.492345556           0.018825302            
       16241.640712139           0.490186146           0.018783973            
       16290.365634276           0.604634894           0.020861885            
       16339.236731178           0.886078041           0.025254742            
       16388.254441372           0.518258480           0.019314353            
       16437.419204696           0.462113812           0.018238177            
       16486.731462310           0.470031649           0.018393759            
       16536.191656697           0.504582215           0.019057807            
       16585.800231667           0.530495138           0.019541039            
       16635.557632362           0.488746538           0.018756370            
       16685.464305259           0.487306932           0.018728726            
       16735.520698175           0.466432632           0.018323204            
       16785.727260270           0.525456515           0.019448017            
       16836.084442050           0.511780249           0.019193258            
       16886.592695376           0.516818873           0.019287508            
       16937.252473463           0.938623692           0.025992778            
       16988.064230883           0.562886294           0.020128772            
       17039.028423576           0.525456514           0.019448017            
       17090.145508846           0.499543590           0.018962415            
       17141.415945373           0.498103983           0.018935072            
       17192.840193209           0.466432632           0.018323204            
       17244.418713789           0.476509880           0.018520082            
       17296.151969930           0.469311846           0.018379670            
       17348.040425840           0.450596956           0.018009476            
       17400.084547117           0.444838528           0.017894029            
       17452.284800759           0.444118725           0.017879546            
       17504.641655161           0.454915777           0.018095577            
       17557.155580126           0.445558332           0.017908501            
       17609.827046867           1.772156088           0.035715598            
       17662.656528007           1.858532501           0.036575648            
       17715.644497591           0.608233911           0.020923882            
       17768.791431084           0.436920690           0.017734063            
       17822.097805377           0.403809732           0.017048860            
       17875.564098794           0.375737398           0.016445579            
       17929.190791090           0.361341329           0.016127452            
       17982.978363463           0.352703688           0.015933528            
       18036.927298554           0.323911550           0.015269336            
       18091.038080449           0.367099756           0.016255450            
       18145.311194691           0.341906636           0.015687752            
       18199.747128275           0.348384867           0.015835675            
       18254.346369660           0.355582901           0.015998431            
       18309.109408769           0.295839215           0.014592672            
       18364.036736995           0.327510567           0.015353932            
       18419.128847206           0.508181231           0.019125652            
       18474.386233747           0.441959315           0.017836026            
       18529.809392449           0.292960002           0.014521488            
       18585.398820626           0.290800591           0.014467870            
       18641.155017088           0.251211402           0.013447038            
       18697.078482139           0.248332188           0.013369755            
       18753.169717586           0.259129240           0.013657310            
       18809.429226738           0.238254940           0.013095675            
       18865.857514419           0.233936119           0.012976441            
       18922.455086962           0.264887667           0.013808224            
       18979.222452223           0.254810419           0.013543021            
       19036.160119579           0.242573761           0.013213834            
       19093.268599938           0.256969829           0.013600285            
       19150.548405738           0.265607471           0.013826972            
       19208.000050955           0.287201574           0.014378062            
       19265.624051108           0.865923545           0.024965871            
       19323.420923261           4.957286362           0.059735011            
       19381.391186031           3.661640148           0.051338689            
       19439.535359589           0.560726883           0.020090125            
       19497.853965668           0.301597643           0.014734009            
       19556.347527565           0.262008454           0.013732974            
       19615.016570148           0.277124326           0.014123563            
       19673.861619858           0.268486684           0.013901713            
       19732.883204718           0.255530223           0.013562136            
       19792.081854332           0.267766881           0.013883066            
       19851.458099895           0.253370812           0.013504709            
       19911.012474195           0.245452974           0.013292023            
       19970.745511617           0.259129240           0.013657310            
       20030.657748152           0.306636267           0.014856575            
       20090.749721396           0.278563933           0.014160200            
       20151.021970561           0.282162950           0.014251381            
       20211.475036472           0.292240198           0.014503637            
       20272.109461582           0.508901035           0.019139193            
       20332.925789966           4.341134603           0.055899583            
       20393.924567336          11.416802519           0.090652376            
       20455.106341038           3.468013017           0.049962862            
       20516.471660061           0.493065359           0.018839058            
       20578.021075042           0.343346243           0.015720744            
       20639.755138267           0.310235284           0.014943507            
       20701.674403682           0.270646095           0.013957506            
       20763.779426893           0.288641181           0.014414052            
       20826.070765173           0.267047078           0.013864393            
       20888.548977469           0.249771795           0.013408452            
       20951.214624401           0.269926291           0.013938933            
       21014.068268274           0.253370812           0.013504709            
       21077.110473079           0.282162950           0.014251381            
       21140.341804498           0.280003540           0.014196743            
       21203.762829912           0.259849043           0.013676265            
       21267.374118402           0.261288650           0.013714097            
       21331.176240757           0.240414350           0.013154888            
       21395.169769479           0.244733171           0.013272519            
       21459.355278788           0.269206488           0.013920336            
       21523.733344624           0.256250026           0.013581224            
       21588.304544658           0.253370812           0.013504709            
       21653.069458292           0.238974743           0.013115442            
       21718.028666667           0.233936119           0.012976441            
       21783.182752667           0.254090616           0.013523878            
       21848.532300925           0.245452974           0.013292023            
       21914.077897827           0.278563933           0.014160200            
       21979.820131521           0.264167864           0.013789450            
       22045.759591916           0.249051992           0.013389118            
       22111.896870691           0.266327274           0.013845695            
       22178.232561303           0.232496512           0.012936452            
       22244.767258987           0.253370812           0.013504709            
       22311.501560764           0.235375726           0.013016307            
       22378.436065447           0.267047078           0.013864393            
       22445.571373643           0.273525309           0.014031552            
       22512.908087764           0.236815333           0.013056051            
       22580.446812027           0.278563933           0.014160200            
       22648.188152463           0.266327274           0.013845695            
       22716.132716921           0.258409436           0.013638328            
       22784.281115071           0.240414350           0.013154888            
       22852.633958417           0.266327274           0.013845695            
       22921.191860292           0.288641181           0.014414052            
       22989.955435873           0.228897495           0.012835934            
       23058.925302180           0.264167864           0.013789450            
       23128.102078087           0.239694547           0.013135180            
       23197.486384321           0.268486684           0.013901713            
       23267.078843474           0.243293564           0.013233425            
       23336.880080004           0.263448060           0.013770650            
       23406.890720244           0.247612385           0.013350365            
       23477.111392405           0.254810419           0.013543021            
       23547.542726582           0.264887667           0.013808224            
       23618.185354762           0.257689633           0.013619320            
       23689.039910826           0.254810419           0.013543021            
       23760.107030559           0.278563933           0.014160200            
       23831.387351651           0.273525309           0.014031552            
       23902.881513706           0.266327274           0.013845695            
       23974.590158247           0.295119412           0.014574908            
       24046.513928721           0.246892581           0.013330946            
       24118.653470508           0.274964916           0.014068428            
       24191.009430919           0.290080788           0.014449953            
       24263.582459212           0.279283736           0.014178483            
       24336.373206589           0.241134154           0.013174566            
       24409.382326209           0.252651009           0.013485513            
       24482.610473188           0.272805505           0.014013077            
       24556.058304607           0.255530222           0.013562136            
       24629.726479521           0.275684719           0.014086831            
       24703.615658960           0.282162950           0.014251381            
       24777.726505937           0.275684719           0.014086831            
       24852.059685455           0.350544277           0.015884677            
       24926.615864511           1.525263502           0.033134421            
       25001.395712104           1.902440509           0.037005177            
       25076.399899241           0.471471256           0.018421906            
       25151.629098938           0.280723343           0.014214979            
       25227.083986235           0.284322360           0.014305810            
       25302.765238194           0.267766881           0.013883066            
       25378.673533909           0.259129240           0.013657310            
       25454.809554510           0.241134154           0.013174566            
       25531.173983174           0.258409436           0.013638328            
       25607.767505123           0.265607471           0.013826972            
       25684.590807639           0.251211402           0.013447038            
       25761.644580062           0.237535136           0.013075878            
       25838.929513802           0.259129240           0.013657310            
       25916.446302343           0.282882753           0.014269547            
       25994.195641250           0.274964916           0.014068428            
       26072.178228174           0.242573761           0.013213834            
       26150.394762859           0.246892581           0.013330946            
       26228.845947147           0.290080788           0.014449953            
       26307.532484989           0.261288650           0.013714097            
       26386.455082444           0.267047078           0.013864393            
       26465.614447691           0.296559019           0.014610414            
       26545.011291034           0.289360984           0.014432014            
       26624.646324907           0.276404522           0.014105209            
       26704.520263882           0.241134154           0.013174566            
       26784.633824673           0.264887667           0.013808224            
       26864.987726147           0.250491598           0.013427759            
       26945.582689326           0.297278822           0.014628134            
       27026.419437394           0.262008454           0.013732974            
       27107.498695706           0.280723343           0.014214979            
       27188.821191793           0.277844129           0.014141893            
       27270.387655369           0.821295730           0.024314018            
       27352.198818335           2.256583804           0.040302564            
       27434.255414790           0.986130719           0.026642452            
       27516.558181034           0.330389781           0.015421274            
       27599.107855577           0.256250026           0.013581224            
       27681.905179144           0.277124326           0.014123563            
       27764.950894681           0.237535136           0.013075878            
       27848.245747365           0.269206488           0.013920336            
       27931.790484607           0.259129240           0.013657310            
       28015.585856061           0.278563933           0.014160200            
       28099.632613629           0.246892581           0.013330946            
       28183.931511470           0.259129240           0.013657310            
       28268.483306005           0.272805505           0.014013077            
       28353.288755923           0.254810419           0.013543021            
       28438.348622190           0.265607471           0.013826972            
       28523.663668057           0.258409436           0.013638328            
       28609.234659061           0.281443146           0.014233191            
       28695.062363038           0.246892581           0.013330946            
       28781.147550128           0.242573761           0.013213834            
       28867.490992778           0.292240198           0.014503637            
       28954.093465756           0.264167864           0.013789450            
       29040.955746154           0.250491598           0.013427759            
       29128.078613392           0.259129240           0.013657310            
       29215.462849232           0.258409436           0.013638328            
       29303.109237780           0.248332188           0.013369755            
       29391.018565493           0.285761967           0.014341982            
       29479.191621190           0.282162950           0.014251381            
       29567.629196053           0.244013367           0.013252986            
       29656.332083641           0.287921378           0.014396068            
       29745.301079892           0.261288650           0.013714097            
       29834.536983132           0.254090616           0.013523878            
       29924.040594081           0.256250026           0.013581224            
       30013.812715864           0.262728257           0.013751825            
       30103.854154011           0.278563933           0.014160200            
       30194.165716473           0.281443146           0.014233191            
       30284.748213623           0.292960002           0.014521488            
       30375.602458264           0.321752139           0.015218353            
       30466.729265638           0.897594896           0.025418337            
       30558.129453435           4.099280638           0.054320126            
       30649.803841796           2.591292408           0.043188205            
       30741.753253321           0.496664376           0.018907689            
       30833.978513081           0.299438233           0.014681167            
       30926.480448620           0.254090616           0.013523878            
       31019.259889966           0.288641181           0.014414052            
       31112.317669636           0.271365898           0.013976054            
       31205.654622645           0.282882753           0.014269547            
       31299.271586513           0.293679805           0.014539316            
       31393.169401272           0.327510567           0.015353932            
       31487.348909476           0.366379953           0.016239505            
       31581.810956205           0.339747225           0.015638133            
       31676.556389073           0.317433319           0.015115872            
       31771.586058240           0.316713515           0.015098724            
       31866.900816415           0.267047078           0.013864393            
       31962.501518864           0.327510567           0.015353932            
       32058.389023421           0.280003540           0.014196743            
       32154.564190491           0.299438233           0.014681167            
       32251.027883063           0.259849043           0.013676265            
       32347.780966712           0.301597643           0.014734009            
       32444.824309612           0.291520395           0.014485764            
       32542.158782541           0.269206488           0.013920336            
       32639.785258888           0.280003540           0.014196743            
       32737.704614665           0.274964915           0.014068428            
       32835.917728509           0.262728257           0.013751825            
       32934.425481695           0.274245112           0.014050002            
       33033.228758140           0.267766881           0.013883066            
       33132.328444414           0.268486684           0.013901713            
       33231.725429747           0.296559019           0.014610414            
       33331.420606037           0.262008453           0.013732974            
       33431.414867855           0.266327274           0.013845695            
       33531.709112458           0.273525309           0.014031552            
       33632.304239796           0.251931205           0.013466289            
       33733.201152515           0.297278822           0.014628134            
       33834.400755973           0.285761967           0.014341982            
       33935.903958241           0.282162950           0.014251381            
       34037.711670115           0.313114498           0.015012691            
       34139.824805126           0.292240198           0.014503637            
       34242.244279541           0.299438233           0.014681167            
       34344.971012380           0.284322360           0.014305810            
       34448.005925417           0.275684719           0.014086831            
       34551.349943193           0.267766881           0.013883066            
       34655.003993023           0.302317446           0.014751580            
       34758.969005002           0.301597643           0.014734009            
       34863.245912017           0.308795677           0.014908795            
       34967.835649753           0.359901722           0.016095294            
       35072.739156702           0.369259167           0.016303190            
       35177.957374172           1.325158143           0.030884516            
       35283.491246295           6.224140425           0.066933978            
       35389.341720033           4.081285549           0.054200767            
       35495.509745194           0.698929144           0.022429703            
       35601.996274429           0.343346243           0.015720744            
       35708.802263252           0.315273908           0.015064370            
       35815.928670042           0.310955088           0.014960833            
       35923.376456052           0.287201574           0.014378062            
       36031.146585420           0.301597643           0.014734009            
       36139.240025177           0.292960002           0.014521488            
       36247.657745252           0.285042164           0.014323907            
       36356.400718488           0.285761967           0.014341982            
       36465.469920643           0.281443147           0.014233191            
       36574.866330405           0.295119412           0.014574908            
       36684.590929397           0.303037250           0.014769131            
       36794.644702185           0.280723343           0.014214979            
       36905.028636291           0.295839215           0.014592672            
       37015.743722200           0.270646095           0.013957506            
       37126.790953367           0.288641181           0.014414052            
       37238.171326227           0.280723343           0.014214979            
       37349.885840206           0.276404522           0.014105209            
       37461.935497726           0.284322360           0.014305810            
       37574.321304219           0.274245112           0.014050002            
       37687.044268132           0.265607471           0.013826972            
       37800.105400936           0.297278822           0.014628134            
       37913.505717139           0.277844129           0.014141893            
       38027.246234291           0.274964915           0.014068428            
       38141.327972994           0.264167864           0.013789450            
       38255.751956913           0.259849043           0.013676265            
       38370.519212783           0.272085702           0.013994578            
       38485.630770422           0.241134154           0.013174566            
       38601.087662733           0.255530222           0.013562136            
       38716.890925721           0.228897495           0.012835934            
       38833.041598498           0.218820247           0.012550201            
       38949.540723294           0.271365898           0.013976054            
       39066.389345464           0.232496512           0.012936452            
       39183.588513500           0.223139068           0.012673447            
       39301.139279040           0.228897495           0.012835934            
       39419.042696878           0.236095530           0.013036194            
       39537.299824968           0.203704375           0.012108968            
       39655.911724443           0.225298478           0.012734622            
       39774.879459616           0.262008453           0.013732974            
       39894.204097995           0.204424178           0.012130343            
       40013.886710289           0.203704375           0.012108968            
       40133.928370420           0.193627126           0.011805654            
       40254.330155531           0.187868699           0.011628780            
       40375.093145998           0.196506340           0.011893104            
       40496.218425436           0.183549878           0.011494339            
       40617.707080712           0.208742999           0.012257811            
       40739.560201954           0.202984571           0.012087555            
       40861.778882560           0.190747913           0.011717551            
       40984.364219208           0.187868699           0.011628780            
       41107.317311866           0.174912237           0.011220625            
       41230.639263801           0.190747913           0.011717551            
       41354.331181593           0.181390468           0.011426525            
       41478.394175137           0.177071647           0.011289675            
       41602.829357663           0.182830075           0.011471779            
       41727.637845736           0.171313220           0.011104586            
       41852.820759273           0.169153809           0.011034377            
       41978.379221551           0.143960689           0.010179558            
       42104.314359216           0.159796364           0.010724829            
       42230.627302293           0.178511254           0.011335476            
       42357.319184200           0.169153809           0.011034377            
       42484.391141753           0.146120099           0.010255620            
       42611.844315178           0.167714202           0.010987322            
       42739.679848123           0.176351844           0.011266706            
       42867.898887668           0.177791451           0.011312599            
       42996.502584331           0.228177692           0.012815736            
       43125.492092084           1.420892000           0.031980664            
       43254.868568360           3.270067056           0.048516032            
       43384.633174065           1.399297896           0.031736720            
       43514.787073587           0.248332188           0.013369755            
       43645.331434808           0.153318133           0.010505185            
       43776.267429113           0.137482458           0.009947881            
       43907.596231400           0.134603244           0.009843164            
       44039.319020094           0.119487372           0.009274018            
       44171.436977154           0.118047765           0.009217981            
       44303.951288086           0.127405210           0.009576362            
       44436.863141950           0.110129927           0.008903477            
       44570.173731376           0.102931892           0.008607597            
       44703.884252570           0.123086389           0.009412651            
       44837.995905328           0.097893268           0.008394278            
       44972.509893044           0.084217003           0.007785864            
       45107.427422723           0.079178379           0.007549362            
       45242.749704991           0.096453661           0.008332327            
       45378.477954106           0.095014055           0.008269912            
       45514.613387968           0.100052679           0.008486357            
       45651.157228132           0.074139755           0.007305207            
       45788.110699817           0.079898182           0.007583600            
       45925.475031916           0.077738772           0.007480417            
       46063.251457012           0.057584275           0.006438118            
       46201.441211383           0.077738772           0.007480417            
       46340.045535017           0.070540737           0.007125690            
       46479.065671622           0.085656610           0.007852128            
       46618.502868637           0.074139755           0.007305207            
       46758.358377243           0.061903096           0.006675182            
       46898.633452375           0.059743686           0.006557721            
       47039.329352732           0.060463489           0.006597107            
       47180.447340790           0.059023882           0.006518097            
       47321.988682812           0.056144669           0.006357132            
       47463.954648861           0.042468403           0.005528915            
       47606.346512807           0.046787224           0.005803241            
       47749.165552346           0.033830762           0.004934724            
       47892.413049003           0.041028796           0.005434397            
       48036.090288150           0.041028796           0.005434397            
       48180.198559014           0.030951548           0.004720067            
       48324.739154691           0.034550565           0.004986944            
       48469.713372155           0.032391155           0.004828588            
       48615.122512272           0.029511941           0.004608991            
       48760.967879809           0.025912924           0.004318821            
       48907.250783448           0.030951548           0.004720067            
       49053.972535798           0.022313907           0.004007696            
       49201.134453406           0.025912924           0.004318821            
       49348.737856766           0.023753514           0.004134956            
       49496.784070336           0.017275283           0.003526302            
       49645.274422547           0.008637641           0.002493472            
       49794.210245815           0.014396069           0.003219059            
       49943.592876552           0.008637641           0.002493472            
       50093.423655182           0.008637641           0.002493472            
       50243.703926148           0.006478231           0.002159410            
       50394.435037926           0.002159410           0.001246736            
       50545.618343040           0.000719803           0.000719803            
       50652.092398655           0.000000000           0.000000000            
